# Start Voltage (V): -0.5
# End Voltage (V): 0.5
# Scan Rate (V/s): 0.01
# Cycles: 2
# Offset Current (µA): -35.0
Time (s),Applied Voltage (V),Current (µA)
4.919253587722778,-0.45080746412277223,-0.052802585189745344
5.0180134773254395,-0.4498198652267456,-0.04593081332492943
5.115516901016235,-0.44884483098983763,-0.04280701331659742
5.213367938995361,-0.4478663206100464,-0.03758201447413967
5.311484098434448,-0.4468851590156555,-0.034069636686297144
5.409559726715088,-0.44590440273284915,-0.03140681423268177
5.507665157318115,-0.44492334842681885,-0.027447940661623704
5.6054747104644775,-0.44394525289535525,-0.022642050460092378
5.703419923782349,-0.4429658007621765,-0.017286555857289443
5.800849437713623,-0.44199150562286377,-0.011494768234946662
5.899808645248413,-0.4410019135475159,-0.0032970313958813335
5.9970667362213135,-0.4400293326377869,0.006300923454297447
6.094814300537109,-0.4390518569946289,0.01587446424198191
6.193010568618774,-0.43806989431381227,0.02416344387127367
6.291720867156982,-0.4370827913284302,0.03239300959066327
6.3888537883758545,-0.43611146211624147,0.04071684601622394
6.487751245498657,-0.4351224875450134,0.04896147978980281
6.585693359375,-0.43414306640625,0.05719285749038505
6.683272123336792,-0.4331672787666321,0.06546088012656526
6.780867338180542,-0.4321913266181946,0.07246229452336195
6.8792884349823,-0.431207115650177,0.08201759628973804
6.977299213409424,-0.43022700786590573,0.08899755301442269
7.075298070907593,-0.42924701929092407,0.09595238042086152
7.173194169998169,-0.4282680583000183,0.10293722472641065
7.270917177200317,-0.4272908282279968,0.11002079816558563
7.369942903518677,-0.4263005709648132,0.11816512924293221
7.467962265014648,-0.4253203773498535,0.12514723173482878
7.565761566162109,-0.4243423843383789,0.13214361549960074
7.663673400878906,-0.42336326599121094,0.13785665404076042
7.760940074920654,-0.4223905992507935,0.14485258481024488
7.8598268032073975,-0.421401731967926,0.15055191428310621
7.956808090209961,-0.4204319190979004,0.1576042310465411
8.055518865585327,-0.41944481134414674,0.16458535602227187
8.153531074523926,-0.41846468925476077,0.17155487001319614
8.251482963562012,-0.4174851703643799,0.17850149582051245
8.349637508392334,-0.4165036249160767,0.185535239776641
8.44770336151123,-0.4155229663848877,0.19256433457046995
8.544860363006592,-0.4145513963699341,0.19840762118137434
8.642296552658081,-0.4135770344734192,0.20554851044695255
8.740848302841187,-0.41259151697158813,0.2125608920983879
8.839812517166138,-0.41160187482833865,0.21956552514601668
8.936960935592651,-0.4106303906440735,0.22405336875496573
9.035525560379028,-0.40964474439620974,0.2298058655709596
9.133729219436646,-0.4086627078056335,0.2355392173750417
9.231420278549194,-0.40768579721450804,0.241298652171686
9.32895040512085,-0.4067104959487915,0.24712052879419133
9.426974296569824,-0.40573025703430177,0.2541966397318305
9.525295734405518,-0.40474704265594486,0.25990626888729906
9.623133897781372,-0.4037686610221863,0.26557570067033254
9.726983308792114,-0.40273016691207886,0.2694653282224664
9.819227695465088,-0.4018077230453491,0.2740269385397909
9.917743921279907,-0.4008225607872009,0.28095184441455956
10.014789342880249,-0.3998521065711975,0.28677863245978585
10.113452434539795,-0.39886547565460206,0.2925594772448292
10.21085238456726,-0.3978914761543274,0.29836943293837237
10.309558868408203,-0.39690441131591797,0.30281171475686364
10.407433986663818,-0.39592566013336183,0.3060188357465492
10.505279302597046,-0.3949472069740295,0.3117736452227575
10.603363275527954,-0.39396636724472045,0.31625383559532594
10.701298952102661,-0.3929870104789734,0.32257543755962814
10.799172401428223,-0.39200827598571775,0.32833413325866445
10.897221088409424,-0.39102778911590574,0.3328895446929394
10.995532274246216,-0.39004467725753783,0.3373183797035608
11.09306001663208,-0.3890693998336792,0.34186074964155466
11.190989255905151,-0.3880901074409485,0.34635019065498795
11.289028644561768,-0.38710971355438234,0.3509063411868496
11.387739896774292,-0.3861226010322571,0.35662891647116624
11.484400510787964,-0.3851559948921204,0.3612199237992968
11.58361029624939,-0.3841638970375061,0.3656983498743642
11.681222677230835,-0.38318777322769165,0.3702091055087635
11.779037714004517,-0.38220962285995486,0.3747257023983579
11.87733244895935,-0.3812266755104065,0.37921769449059184
11.975165605545044,-0.38024834394454954,0.38375748950793565
12.073299407958984,-0.3792670059204102,0.38823667852246757
12.171224355697632,-0.3782877564430237,0.3927162966904376
12.269458055496216,-0.3773054194450378,0.39842652189235395
12.36675763130188,-0.3763324236869812,0.40302787658681893
12.465392589569092,-0.3753460741043091,0.40743179685593134
12.56372332572937,-0.3743627667427063,0.4131736602032845
12.66127634048462,-0.3733872365951538,0.41767142202512986
12.75962495803833,-0.3724037504196167,0.42211582576898365
12.857513189315796,-0.37142486810684205,0.4278509180286818
12.955376863479614,-0.3704462313652038,0.4335829585305788
13.053401231765747,-0.3694659876823425,0.43807590429712207
13.15724229812622,-0.3684275770187378,0.44197723820148127
13.248955726623535,-0.36751044273376465,0.44653059923597027
13.346217632293701,-0.366537823677063,0.4510877272840048
13.445300340652466,-0.36554699659347534,0.45560008032289545
13.543166637420654,-0.36456833362579344,0.45890883915284775
13.641926288604736,-0.36358073711395267,0.46334697248806833
13.738948583602905,-0.36261051416397094,0.46791773807883885
13.83690357208252,-0.3616309642791748,0.47123178980125147
13.935628175735474,-0.3606437182426453,0.4744597485747519
14.033215045928955,-0.35966784954071046,0.4789814953056606
14.131156921386719,-0.3586884307861328,0.4840931611268289
14.228976011276245,-0.35771023988723755,0.48859426080878166
14.326969623565674,-0.3567303037643432,0.4917721516806637
14.425382137298584,-0.3557461786270142,0.49501706201512974
14.523265361785889,-0.35476734638214114,0.49951031772582866
14.621217012405396,-0.35378782987594604,0.5028343353448435
14.724241971969604,-0.35275758028030396,0.5055580865072429
14.816812992095947,-0.3518318700790405,0.5100702726531168
14.915482759475708,-0.35084517240524293,0.5145879424263171
15.012724876403809,-0.34987275123596195,0.5178900493779253
15.110738039016724,-0.34889261960983275,0.5224350657621386
15.20885682106018,-0.3479114317893982,0.5257000747828329
15.307462692260742,-0.3469253730773926,0.5301538960605541
15.405619144439697,-0.345943808555603,0.5346333234936651
15.503225088119507,-0.3449677491188049,0.5378904408593925
15.601558923721313,-0.34398441076278685,0.543609416023159
15.699918270111084,-0.34300081729888915,0.548544914356242
15.796813249588013,-0.34203186750411985,0.5517979786061247
15.895518064498901,-0.34104481935501096,0.5550475381028832
15.992943286895752,-0.34007056713104244,0.559528825200907
16.091708183288574,-0.3390829181671142,0.5626849007728012
16.188851356506348,-0.3381114864349365,0.5659385372272681
16.287712335586548,-0.33712287664413454,0.5691666628937639
16.385504722595215,-0.3361449527740479,0.5736812332254217
16.483394861221313,-0.3351660513877869,0.5769173459143317
16.582128047943115,-0.3341787195205689,0.5788634853430992
16.679250240325928,-0.33320749759674073,0.5821833783206927
16.777479648590088,-0.3322252035140991,0.5866198665677089
16.875080108642578,-0.3312491989135742,0.5911667903005622
16.972718000411987,-0.3302728199958801,0.5956924470961624
17.071239709854126,-0.32928760290145875,0.5989923844386951
17.169962167739868,-0.3283003783226013,0.6033844314625654
17.267215251922607,-0.3273278474807739,0.6079372679761903
17.364990234375,-0.32635009765625,0.6112418067972953
17.462913036346436,-0.3253708696365356,0.6157931174320055
17.561685800552368,-0.3243831419944763,0.619090432170168
17.658966541290283,-0.32341033458709717,0.6236219302209491
17.757545232772827,-0.3224245476722717,0.626868461801763
17.855360746383667,-0.32144639253616336,0.6300934880267306
17.953227519989014,-0.3204677248001099,0.6332956260681186
18.051297187805176,-0.31948702812194824,0.6377930064202388
18.14971947669983,-0.3185028052330017,0.6410703655233263
18.247509002685547,-0.31752490997314453,0.6430440422979729
18.345786571502686,-0.31654213428497313,0.6462174985842921
18.443574905395508,-0.3155642509460449,0.6506544398266101
18.54084062576294,-0.3145915937423706,0.6539920473046408
18.641889095306396,-0.31358110904693604,0.6557028437539785
18.73760962486267,-0.3126239037513733,0.6576994563959389
18.834357738494873,-0.3116564226150513,0.6610528471839032
18.93679404258728,-0.3106320595741272,0.6626992467750128
19.03297781944275,-0.3096702218055725,0.664534235462213
19.12928557395935,-0.30870714426040646,0.6678307157353416
19.22733235359192,-0.3077266764640808,0.6723515087919196
19.32554841041565,-0.3067445158958435,0.6743783767515694
19.42308473587036,-0.3057691526412964,0.6776804837031705
19.52144718170166,-0.30478552818298343,0.6808729181083777
19.619054079055786,-0.30380945920944213,0.6856595478806682
19.71768879890442,-0.3028231120109558,0.69015475862372
19.815552234649658,-0.3018444776535034,0.6932883990073222
19.913670301437378,-0.3008632969856262,0.6981039012695334
20.011461973190308,-0.2998853802680969,0.7027586140420041
20.110981702804565,-0.29889018297195435,0.7045920530084331
20.20744299888611,-0.29792557001113895,0.7078340784780934
20.305318355560303,-0.29694681644439697,0.7136102502589878
20.40347909927368,-0.2959652090072632,0.7155738657695991
20.50088906288147,-0.29499110937118533,0.7201328057988405
20.60014009475708,-0.2939985990524292,0.7220272560796488
20.697032928466797,-0.29302967071533204,0.7253459331224903
20.795530319213867,-0.2920446968078613,0.7273511765170184
20.89419984817505,-0.2910580015182495,0.7305513118423406
20.990760326385498,-0.290092396736145,0.732624528373762
21.088867664337158,-0.2891113233566284,0.7373390603677308
21.186850547790527,-0.28813149452209474,0.7406513954763767
21.285613298416138,-0.2871438670158386,0.7426249530417337
21.38344120979309,-0.2861655879020691,0.7471318701370251
21.481623888015747,-0.28518376111984256,0.7503114776226809
21.578845500946045,-0.2842115449905396,0.7549440651510082
21.677587270736694,-0.283224127292633,0.7756422549970239
21.77540397644043,-0.28224596023559567,0.7976585514955019
21.872982025146484,-0.2812701797485352,0.8035335000937209
21.970977306365967,-0.2802902269363403,0.8105150065391697
22.06895399093628,-0.2793104600906372,0.816259540174606
22.16745376586914,-0.2783254623413086,0.8219523846620973
22.26539444923401,-0.2773460555076599,0.8277274358756657
22.36836314201355,-0.2763163685798645,0.831738370800835
22.46152639389038,-0.2753847360610962,0.8375012865087257
22.559516429901123,-0.2744048357009888,0.8431873599085762
22.65733051300049,-0.27342669486999516,0.8302156297555072
22.755375623703003,-0.27244624376297,0.8172210591025575
22.856529474258423,-0.27143470525741575,0.821369442338586
22.95335865020752,-0.2704664134979248,0.8231343598053726
23.049099683761597,-0.269509003162384,0.8263728805219301
23.14687466621399,-0.2685312533378601,0.8296838804865416
23.244946479797363,-0.2675505352020264,0.8317317292811452
23.343665838241577,-0.2665633416175842,0.8354545496574346
23.441779136657715,-0.26558220863342286,0.8386823653797961
23.538907527923584,-0.2646109247207642,0.8419963455766322
23.637216567993164,-0.26362783432006837,0.847760906372713
23.73557138442993,-0.2626442861557007,0.8522444584472382
23.83345603942871,-0.26166543960571287,0.8533048156330238
23.93105983734131,-0.26068940162658694,0.8580378250668588
24.029698133468628,-0.25970301866531376,0.8599810319471004
24.130300760269165,-0.25869699239730837,0.8628915125406635
24.22547435760498,-0.2577452564239502,0.8673418529071313
24.32394027709961,-0.2567605972290039,0.8705674990204173
24.421111345291138,-0.25578888654708865,0.8738873681561614
24.51893639564514,-0.2548106360435486,0.8771375713830878
24.617722034454346,-0.2538227796554565,0.8790900765879215
24.715439081192017,-0.25284560918807986,0.8823563969107937
24.812947511672974,-0.2518705248832703,0.886910377833587
24.911665201187134,-0.25088334798812867,0.8901029314480979
25.00956439971924,-0.24990435600280764,0.8946194329702593
25.108222484588623,-0.24891777515411379,0.8980803505374055
25.205403089523315,-0.24794596910476685,0.902590605492783
25.303462743759155,-0.24696537256240847,0.9071414869740551
25.401099920272827,-0.2459890007972717,0.9103957194749555
25.49923062324524,-0.2450076937675476,0.913619386714025
25.597010374069214,-0.24402989625930788,0.9169436427516189
25.69537043571472,-0.2430462956428528,0.920203597298439
25.793899059295654,-0.24206100940704345,0.9221114943871243
25.892067193984985,-0.24107932806015014,0.9253243851064283
25.989006996154785,-0.24010993003845216,0.9286332154619572
26.087895154953003,-0.23912104845047,0.9319190384246028
26.185577630996704,-0.23814422369003296,0.9351546742763475
26.28320074081421,-0.2371679925918579,0.9384339645699313
26.381049871444702,-0.236189501285553,0.9416920594518317
26.47949457168579,-0.2352050542831421,0.94491875460686
26.578248977661133,-0.23421751022338866,0.948047984246756
26.675407648086548,-0.23324592351913453,0.9512973530086484
26.773051977157593,-0.23226948022842409,0.955885189369674
26.87126898765564,-0.2312873101234436,0.9592181000016922
26.969844102859497,-0.23030155897140503,0.9623874793303102
27.067023277282715,-0.22932976722717285,0.965727757096424
27.164878368377686,-0.22835121631622313,0.9690507733574023
27.26305389404297,-0.2273694610595703,0.9710685098854768
27.360878229141235,-0.22639121770858767,0.9730887259667682
27.459755420684814,-0.22540244579315183,0.9750656929178163
27.55766272544861,-0.22442337274551394,0.978377408138158
27.655438899993896,-0.22344561100006105,0.9816273729465053
27.757433891296387,-0.22242566108703615,0.9831922333835763
27.851234674453735,-0.22148765325546266,0.9876987928509848
27.94890809059143,-0.2205109190940857,0.9910454840768779
28.047767877578735,-0.21952232122421267,0.9942241140463608
28.145822525024414,-0.21854177474975583,0.9961327502326398
28.24361252784729,-0.2175638747215271,0.9993299768512856
28.341925144195557,-0.21658074855804443,1.0024783753449356
28.438908576965332,-0.21561091423034667,1.0058161497159617
28.53777551651001,-0.2146222448348999,1.0078079224607706
28.634455680847168,-0.2136554431915283,1.0099092962263896
28.733494997024536,-0.21266505002975467,1.013556275652661
28.831676959991455,-0.21168323040008546,1.0142650608016979
28.929425477981567,-0.21070574522018432,1.018716450209908
29.02711772918701,-0.20972882270812987,1.0220345550481653
29.12555694580078,-0.2087444305419922,1.0253142029696178
29.22331404685974,-0.20776685953140261,1.0298471792155937
29.321017742156982,-0.20678982257843015,1.0331910094185446
29.41905927658081,-0.2058094072341919,1.0364290294560803
29.517547845840454,-0.20482452154159547,1.0397048865221237
29.61560297012329,-0.2038439702987671,1.041593209445459
29.713860034942627,-0.2028613996505737,1.043559757504596
29.811309337615967,-0.20188690662384035,1.0468496097412228
29.910252332687378,-0.20089747667312624,1.0475199379734548
30.007909297943115,-0.19992090702056886,1.0494438329487892
30.105222702026367,-0.19894777297973631,1.0514803091771654
30.203397035598755,-0.19796602964401244,1.053475062154213
30.30070447921753,-0.19699295520782473,1.0567594784472405
30.399200201034546,-0.19600799798965451,1.0599984760009562
30.497633934020996,-0.19502366065979004,1.0619929190338553
30.5962393283844,-0.194037606716156,1.0651823732068308
30.693645000457764,-0.19306354999542236,1.0684569666544093
30.790995359420776,-0.19209004640579225,1.0717414544730133
30.888874769210815,-0.19111125230789183,1.076382338967889
30.987521171569824,-0.19012478828430174,1.0796742416043017
31.085806369781494,-0.18914193630218507,1.082868964827881
31.183391094207764,-0.18816608905792237,1.086122648966061
31.280866384506226,-0.18719133615493777,1.0881095102881346
31.379194498062134,-0.18620805501937865,1.090113132436322
31.477608919143677,-0.1852239108085632,1.0933687239231347
31.575778245925903,-0.184242217540741,1.0966679221680664
31.6734037399292,-0.183265962600708,1.0999451382200007
31.7715322971344,-0.18228467702865603,1.101894496299586
31.86906123161316,-0.1813093876838684,1.1013788256140273
31.96732211112976,-0.1803267788887024,1.1046518216571215
32.0652437210083,-0.17934756278991698,1.1067111383853927
32.16282272338867,-0.17837177276611327,1.108771027318241
32.26255202293396,-0.1773744797706604,1.1118555534745624
32.35874843597412,-0.17641251564025878,1.11515324968245
32.45759415626526,-0.17542405843734743,1.1184078159693769
32.55557107925415,-0.17444428920745847,1.1216816226356343
32.6536021232605,-0.173463978767395,1.124914874301588
32.75096106529236,-0.1724903893470764,1.1282250874848785
32.84929800033569,-0.17150701999664308,1.131454500611703
32.94688081741333,-0.17053119182586668,1.1335016818342964
33.04509902000427,-0.1695490097999573,1.1380192800819202
33.143131732940674,-0.16856868267059327,1.1412414691258022
33.241111040115356,-0.16758888959884644,1.1446386574067446
33.33900165557861,-0.16660998344421385,1.147866425445379
33.43698573112488,-0.1656301426887512,1.149930319810366
33.5357768535614,-0.164642231464386,1.15191279423059
33.63309597969055,-0.16366904020309447,1.1539664604385322
33.73154830932617,-0.1626845169067383,1.1571608260342288
33.82905960083008,-0.1617094039916992,1.1604377559838852
33.92750692367554,-0.16072493076324462,1.1636282353567466
34.0252730846405,-0.159747269153595,1.1668639188922114
34.12349200248718,-0.15876507997512818,1.1700809819366427
34.221224308013916,-0.15778775691986086,1.1720727069977315
34.31901979446411,-0.15680980205535888,1.175323983108271
34.41706371307373,-0.1558293628692627,1.1798193130606052
34.515382528305054,-0.15484617471694945,1.1831118355853292
34.61332893371582,-0.1538667106628418,1.1863416301818717
34.711737871170044,-0.15288262128829955,1.1895757639965723
34.80969166755676,-0.15190308332443236,1.194015685471129
34.90711545944214,-0.1509288454055786,1.1973079218935467
35.00490069389343,-0.14995099306106568,1.2005982509673387
35.10363698005676,-0.14896363019943237,1.2038368432094728
35.201475620269775,-0.14798524379730227,1.2083148401311092
35.299126386642456,-0.14700873613357546,1.2115572709123583
35.39773440361023,-0.14602265596389769,1.2134932537096503
35.49576497077942,-0.1450423502922058,1.2167080994613073
35.59374523162842,-0.14406254768371585,1.2199195596691226
35.691232442855835,-0.14308767557144164,1.2219731543514953
35.78892278671265,-0.14211077213287354,1.2240530942868588
35.88773441314697,-0.1411226558685303,1.2272442889154647
35.9856219291687,-0.14014378070831301,1.2291752172388755
36.083534479141235,-0.13916465520858767,1.231188519181373
36.18181753158569,-0.13818182468414308,1.2344074180488604
36.279176235198975,-0.13720823764801027,1.236405485044159
36.37749147415161,-0.13622508525848387,1.23843282984096
36.47500157356262,-0.1352499842643738,1.2405122214135957
36.57525992393494,-0.13424740076065061,1.242363804033893
36.671042680740356,-0.13328957319259643,1.2456358702445272
36.76915431022644,-0.13230845689773557,1.24886580789223
36.86659359931946,-0.13133406400680542,1.2509829411259332
36.96501803398132,-0.13034981966018677,1.2530463824956186
37.063801765441895,-0.12936198234558105,1.255022705716513
37.16105794906616,-0.12838942050933838,1.2571017158194095
37.25956630706787,-0.1274043369293213,1.2603157986316091
37.35773777961731,-0.12642262220382688,1.2635442580841243
37.45566129684448,-0.12544338703155516,1.2679814139031578
37.55328893661499,-0.12446711063385008,1.2714316026342374
37.65125060081482,-0.12348749399185183,1.2746639006258675
37.749579191207886,-0.12250420808792112,1.2778745025268066
37.84771275520325,-0.12152287244796756,1.281015676937507
37.94535541534424,-0.1205464458465576,1.2842350288002962
38.04323387145996,-0.11956766128540042,1.2875449081975745
38.14104104042053,-0.11858958959579469,1.2907996890612168
38.23890805244446,-0.11761091947555541,1.2928685663745085
