# Start Voltage (V): 0.0
# End Voltage (V): 1.5
# Scan Rate (V/s): 0.05
# Cycles: 2
# Offset Current (µA): -28.0
Time (s),Applied Voltage (V),Current (µA)
1.4908196926116943,0.07454098463058473,-0.023329701804772895
1.5226917266845703,0.07613458633422851,-0.03425768883944613
1.5598900318145752,0.07799450159072875,-0.041562412821281924
1.5735821723937988,0.07867910861968994,-0.024828806092138223
1.601283311843872,0.0800641655921936,-0.017489018541976264
1.6323292255401611,0.08161646127700806,-0.011383261712481385
1.664724349975586,0.0832362174987793,-0.010517924817417423
1.6792285442352295,0.08396142721176147,0.0013790763488259472
1.7105023860931396,0.08552511930465699,0.009925118198886196
1.744009017944336,0.0872004508972168,0.01500909353097768
1.7741649150848389,0.08870824575424194,0.022091021922687304
1.8068962097167969,0.09034481048583984,0.032493434479267336
1.8326385021209717,0.09163192510604858,0.04237366265807552
1.869882583618164,0.0934941291809082,0.04422803482231785
1.8855104446411133,0.09427552223205567,0.05211904620011154
1.9014875888824463,0.09507437944412231,0.06504436600911845
1.932734727859497,0.09663673639297486,0.07854367854731237
1.964487075805664,0.09822435379028321,0.08091883794596555
1.99656343460083,0.09982817173004149,0.08289273887599435
2.0328567028045654,0.10164283514022827,0.08472335977789314
2.04545521736145,0.1022727608680725,0.09658271011974051
2.0764260292053223,0.10382130146026612,0.10682222555934828
2.108208417892456,0.10541042089462281,0.11654176915375913
2.133063316345215,0.10665316581726073,0.12745575167783585
2.1567018032073975,0.10783509016036988,0.13686449757857488
2.1892988681793213,0.10946494340896606,0.1379632831140043
2.220085620880127,0.11100428104400635,0.13929226178756338
2.2520856857299805,0.11260428428649903,0.14299745830554755
2.267775058746338,0.1133887529373169,0.15489614771293958
2.299036979675293,0.11495184898376465,0.1705605489058648
2.3460257053375244,0.11730128526687622,0.16652976824984123
2.3620495796203613,0.11810247898101807,0.16997245637433167
2.377699851989746,0.1188849925994873,0.18398127895396854
2.408949851989746,0.1204474925994873,0.1947925507599848
2.4564871788024902,0.1228243589401245,0.19490444073885982
2.472334384918213,0.12361671924591065,0.20339126014583897
2.5196125507354736,0.12598062753677366,0.2061324492908554
2.5196125507354736,0.12598062753677366,0.22237359456453376
2.573032855987549,0.12865164279937744,0.2197492737203568
2.5881710052490234,0.12940855026245118,0.221436724265498
2.615238666534424,0.13076193332672117,0.23433474514719776
2.647522211074829,0.13237611055374146,0.2391029309001098
2.6635520458221436,0.13317760229110717,0.24368133546406767
2.694704532623291,0.13473522663116455,0.2495585347755771
2.725969076156616,0.1362984538078308,0.26232208757866005
2.7419838905334473,0.13709919452667238,0.27500183625118524
2.7732436656951904,0.13866218328475952,0.29319070395520797
2.837695360183716,0.14188476800918579,0.28165380071122925
2.8640952110290527,0.14320476055145265,0.28112704837435487
2.8640952110290527,0.14320476055145265,0.29316952326075807
2.8852124214172363,0.14426062107086182,0.30943726174390207
2.931776523590088,0.1465888261795044,0.3173146832626976
2.9626059532165527,0.14813029766082764,0.31654226919378203
2.9797613620758057,0.14898806810379028,0.3227683940958066
2.9958553314208984,0.14979276657104493,0.3365798060919545
3.0341475009918213,0.15170737504959106,0.3417526167873248
3.0577962398529053,0.15288981199264529,0.3494809074848959
3.089691638946533,0.15448458194732667,0.37473738402803747
3.111821413040161,0.15559107065200806,0.40087886079890467
3.1398727893829346,0.15699363946914674,0.4092445349539773
3.1690847873687744,0.15845423936843872,0.4135628153102182
3.206840753555298,0.1603420376777649,0.42228516365962676
3.2341723442077637,0.16170861721038818,0.4340064696441672
3.256103992462158,0.1628051996231079,0.44333965593114044
3.2800052165985107,0.16400026082992553,0.4500192529706162
3.3116209506988525,0.16558104753494263,0.4562869533009746
3.3444671630859375,0.1672233581542969,0.46170603131274035
3.3606817722320557,0.16803408861160277,0.46996535170571363
3.4066858291625977,0.1703342914581299,0.47253772142091677
3.422360420227051,0.17111802101135254,0.4812984837752836
3.4541659355163574,0.1727082967758179,0.4887624874779064
3.4691832065582275,0.17345916032791137,0.505095762456591
3.5025486946105957,0.17512743473052977,0.5196621268834569
3.539836883544922,0.1769918441772461,0.5240501446740851
3.5798630714416504,0.17899315357208254,0.5203756805845288
3.5955071449279785,0.17977535724639893,0.5259370849501117
3.626749277114868,0.1813374638557434,0.531050491267667
3.6437137126922607,0.18218568563461301,0.5382890606658464
3.6834776401519775,0.18417388200759888,0.54614761850317
3.707608938217163,0.18538044691085814,0.5522778991363921
3.7348809242248535,0.1867440462112427,0.5581748681141576
3.754041910171509,0.18770209550857542,0.5645000559357918
3.80157732963562,0.19007886648178102,0.5649903161997045
3.8173558712005615,0.1908677935600281,0.5762354001483061
3.8349387645721436,0.1917469382286072,0.5974520932113485
3.8644044399261475,0.1932202219963074,0.6130080234886819
3.9137423038482666,0.19568711519241333,0.6207661260465436
3.9282615184783936,0.1964130759239197,0.628496800929895
3.9614105224609375,0.19807052612304688,0.6395349375518364
3.992408037185669,0.19962040185928343,0.6433898513995935
4.010780572891235,0.2005390286445618,0.655444604842824
4.0398313999176025,0.20199156999588014,0.662554437746202
4.071090936660767,0.20355454683303836,0.6740520975656423
4.087567567825317,0.20437837839126588,0.6902008651778253
4.118895053863525,0.2059447526931763,0.6969772601604163
4.15064001083374,0.20753200054168702,0.7026140143349053
4.182274341583252,0.2091137170791626,0.7158524969475586
4.197925806045532,0.2098962903022766,0.7310249309404142
4.245562314987183,0.21227811574935912,0.7377035743055664
4.277275085449219,0.21386375427246096,0.746524666098356
4.308508396148682,0.21542541980743407,0.7464152940979218
4.308508396148682,0.21542541980743407,0.7620813737588037
4.340250730514526,0.21701253652572633,0.7775060546083417
4.373019218444824,0.21865096092224123,0.7822847307787413
4.419170618057251,0.22095853090286255,0.7821515264582963
4.4358789920806885,0.22179394960403442,0.7882865754631112
4.450922250747681,0.22254611253738404,0.8039671986573182
4.482233047485352,0.22411165237426756,0.809318079417551
4.513526201248169,0.22567631006240843,0.8240906759153468
4.545141220092773,0.2272570610046387,0.8401621863699908
4.593585014343262,0.22967925071716305,0.8501285313453977
4.608722686767578,0.2304361343383789,0.8512760019605032
4.6243696212768555,0.23121848106384274,0.8592211343557601
4.656064033508301,0.23280320167541504,0.8689533427485792
4.671728610992432,0.23358643054962158,0.8964290385018145
4.703965663909912,0.2351982831954956,0.9161403948080356
4.736644744873047,0.23683223724365235,0.9257838018180493
4.766322612762451,0.23831613063812254,0.9374937114003323
4.797678232192993,0.23988391160964967,0.9479223500006171
4.813369512557983,0.24066847562789917,0.9638127815444371
4.845074415206909,0.24225372076034546,0.9868226207408952
4.876614093780518,0.24383070468902587,1.002881495010847
4.907888412475586,0.2453944206237793,1.0123767153360355
4.93654727935791,0.2468273639678955,1.0258897846320671
4.971163034439087,0.24855815172195433,1.0261771506851645
5.007945775985718,0.2503972887992859,1.024191672423683
5.019819736480713,0.25099098682403564,1.0351088306925469
5.049941301345825,0.25249706506729125,1.0458041404735532
5.082207202911377,0.25411036014556887,1.0572943473351941
5.0984930992126465,0.2549246549606323,1.0684872462286918
5.136950492858887,0.2568475246429443,1.0775539377716754
5.160740375518799,0.25803701877594,1.091745565419643
5.177319288253784,0.25886596441268916,1.1132848960476451
5.208447694778442,0.26042238473892215,1.1323394187063585
5.23998236656189,0.26199911832809447,1.1541845211620583
5.2725160121917725,0.2636258006095886,1.1794042097242752
5.293507099151611,0.26467535495758054,1.1975652587577947
5.351723670959473,0.2675861835479736,1.2041788806162117
5.351723670959473,0.2675861835479736,1.224425376961129
5.383057117462158,0.2691528558731079,1.2408982126497499
5.4294633865356445,0.2714731693267822,1.2533966106247547
5.437015771865845,0.27185078859329226,1.270263642820197
5.461604833602905,0.2730802416801452,1.2856256768108842
5.499399900436401,0.27496999502182007,1.2939042662027376
5.525399446487427,0.27626997232437134,1.3087005329052097
5.547253370285034,0.2773626685142517,1.3288366605238124
5.571943044662476,0.27859715223312376,1.348373532581764
5.604678392410278,0.2802339196205139,1.379400978521602
5.637457370758057,0.28187286853790283,1.397789049731962
5.666645288467407,0.28333226442337034,1.4134997708945818
5.694463014602661,0.28472315073013305,1.4385047635263177
5.731083869934082,0.2865541934967041,1.4577257881943986
5.751636266708374,0.2875818133354187,1.4752150308994487
5.781504154205322,0.2890752077102661,1.4979179014209123
5.810146808624268,0.2905073404312134,1.5167991414621511
5.826836347579956,0.29134181737899784,1.5420126883687537
5.857351779937744,0.2928675889968872,1.5643133562851794
5.88974928855896,0.294487464427948,1.5842828674686302
5.931631326675415,0.29658156633377075,1.5997008487677427
5.93749737739563,0.29687486886978154,1.6305298780058308
5.968719244003296,0.2984359622001648,1.659656837007713
5.9997498989105225,0.2999874949455261,1.6853287054810089
6.037644147872925,0.30188220739364624,1.706079762304661
6.063294887542725,0.30316474437713625,1.7301894311900234
6.090274810791016,0.30451374053955077,1.7588805801051208
6.111257791519165,0.3055628895759583,1.7829249318377158
6.142048120498657,0.3071024060249329,1.8043317589631833
6.1588733196258545,0.30794366598129275,1.8360248171319355
6.205167055130005,0.3102583527565002,1.8692621410512587
6.237438678741455,0.31187193393707274,1.8855465640805456
6.2524497509002686,0.3126224875450134,1.9124364606305342
6.268084526062012,0.31340422630310055,1.945774258905125
6.2993505001068115,0.3149675250053406,1.9824261946385136
6.3463475704193115,0.31731737852096553,2.010905041346838
6.3858420848846436,0.31929210424423216,2.0281264398540877
6.409756183624268,0.3204878091812134,2.046382355651872
6.441461086273193,0.3220730543136597,2.0654310227630788
6.441461086273193,0.3220730543136597,2.0953923657341527
6.47272253036499,0.32363612651824947,2.130369778115135
6.503978490829468,0.32519892454147337,2.1671050602177395
6.5195958614349365,0.32597979307174685,2.2010371168007445
6.551231861114502,0.3275615930557251,2.23071867556925
6.58297061920166,0.329148530960083,2.260163842316569
6.615038156509399,0.33075190782547,2.29457369927
6.647269010543823,0.3323634505271912,2.3363655008832964
6.662465333938599,0.33312326669692993,2.3800161138727454
6.709953546524048,0.3354976773262024,2.419525186338337
6.724979400634766,0.3362489700317383,2.449021255452301
6.757495641708374,0.3378747820854187,2.4778899260753526
6.808666229248047,0.34043331146240235,2.500551397605225
6.808666229248047,0.34043331146240235,2.5335216307341
6.842148780822754,0.34210743904113766,2.561818473470993
6.8837432861328125,0.34418716430664065,2.5889375570408433
6.899383306503296,0.34496916532516475,2.624270399079329
6.915005445480347,0.34575027227401733,2.665407522350229
6.947037935256958,0.34735189676284794,2.699376600578347
6.981139183044434,0.3490569591522217,2.741289199353581
7.010708332061768,0.3505354166030884,2.777180188823653
7.048285484313965,0.3524142742156982,2.8117907608525634
7.0659685134887695,0.3532984256744385,2.8593949976195
7.0919787883758545,0.3545989394187927,2.8927440587947544
7.122543811798096,0.35612719058990483,2.932552036638789
7.160537242889404,0.3580268621444702,2.974160551592199
7.1935343742370605,0.359676718711853,3.0045904347607504
7.216717720031738,0.36083588600158695,3.034989828964889
7.232378959655762,0.3616189479827881,3.0760749245416044
7.248404502868652,0.36242022514343264,3.124947834257476
7.2799296379089355,0.36399648189544676,3.171592712813741
7.311179161071777,0.36555895805358884,3.2201513677665368
7.342484712600708,0.36712423563003543,3.261898761542273
7.374364614486694,0.36871823072433474,3.3019613799666914
7.407650947570801,0.37038254737854004,3.3406633435601876
7.439033269882202,0.3719516634941101,3.380170785247355
7.50178861618042,0.375089430809021,3.4110493101999317
7.516800880432129,0.3758400440216064,3.446013375923986
7.516800880432129,0.3758400440216064,3.48630798516378
7.5389649868011475,0.37694824934005733,3.522283274677374
7.564111232757568,0.3782055616378784,3.5626980468810387
7.6109960079193115,0.3805498003959656,3.597795269381521
7.627573728561401,0.3813786864280701,3.641506445473567
7.658784866333008,0.3829392433166504,3.685552003622803
7.706553220748901,0.3853276610374451,3.721106512958002
7.722197532653809,0.38610987663269036,3.764530027496452
7.745639324188232,0.38728196620941163,3.8263602812686592
7.77011251449585,0.3885056257247924,3.8834600720129195
7.786146402359009,0.38930732011795044,3.9350429951218686
7.817736387252808,0.39088681936264036,3.981912978968431
7.849390029907227,0.3924695014953613,4.025529264465995
7.86567497253418,0.393283748626709,4.0844454662309495
7.897783994674683,0.39488919973373415,4.13809609354297
7.929633617401123,0.39648168087005614,4.193927554673849
7.9937567710876465,0.3996878385543823,4.240331578021273
7.9937567710876465,0.3996878385543823,4.2945577573211615
8.010534286499023,0.4005267143249512,4.352116074682563
8.040956974029541,0.40204784870147703,4.404199567136246
8.0734281539917,0.403671407699585,4.450564489836697
8.088443279266357,0.40442216396331787,4.507716918642995
8.139369487762451,0.40696847438812256,4.556483102676594
8.183681964874268,0.4091840982437134,4.58873544317149
8.199321746826172,0.40996608734130857,4.629222403760686
8.199321746826172,0.40996608734130857,4.683134099416826
8.239465951919556,0.4119732975959778,4.75278538381394
8.262613296508789,0.4131306648254395,4.812113034064577
8.294042825698853,0.41470214128494265,4.864114677425878
8.341513872146606,0.4170756936073303,4.9063421031804175
8.341513872146606,0.4170756936073303,4.963555080767904
8.389690160751343,0.4194845080375671,5.004187476690348
8.40471887588501,0.4202359437942505,5.062768619294005
8.452007055282593,0.42260035276412966,5.121111948902918
8.467701435089111,0.4233850717544555,5.179427979584524
8.484122276306152,0.4242061138153076,5.22828355150947
8.514768600463867,0.42573843002319334,5.283138102050383
8.562476396560669,0.4281238198280334,5.325712426837519
8.57904863357544,0.42895243167877195,5.376965435860445
8.593941688537598,0.42969708442687987,5.445757478774297
8.625601291656494,0.43128006458282464,5.4987197201286975
8.662859201431274,0.4331429600715637,5.557141150898076
8.68944787979126,0.434472393989563,5.612282676350574
8.705064296722412,0.43525321483612056,5.682010044888152
8.739819288253784,0.43699096441268925,5.742207107563299
8.769100666046143,0.4384550333023071,5.797223940098924
8.80017614364624,0.44000880718231206,5.850776157765225
8.832887649536133,0.4416443824768066,5.913076558683116
8.863998889923096,0.4431999444961548,5.966857419766768
8.879896879196167,0.44399484395980837,6.022635889991243
8.929181337356567,0.44645906686782844,6.068351894546829
8.943717002868652,0.4471858501434326,6.124178983085628
8.959578275680542,0.4479789137840271,6.185369774398467
9.008089303970337,0.45040446519851685,6.235113412624536
9.023117542266846,0.45115587711334226,6.290970313023628
9.040167570114136,0.45200837850570685,6.354192926543394
9.086867332458496,0.4543433666229248,6.4096033976910185
9.119554042816162,0.4559777021408081,6.4650262666047595
9.14018988609314,0.457009494304657,6.526936872221636
9.166065692901611,0.4583032846450806,6.583858569070809
9.181709051132202,0.45908545255661004,6.657600815884887
9.212953329086304,0.4606476664543152,6.725488832774225
9.245259523391724,0.4622629761695861,6.7839043507686725
9.278274059295654,0.46391370296478274,6.847568038659773
9.317047834396362,0.46585239171981807,6.904359110741318
9.326865673065186,0.4663432836532593,6.9647662774120995
9.356477975845337,0.4678238987922668,7.033717173864986
9.388680696487427,0.4694340348243713,7.1041601033237995
9.420438766479492,0.47102193832397465,7.170291957573202
9.440540313720703,0.4720270156860351,7.239310941606227
9.471839904785156,0.47359199523925777,7.301751847370472
9.531351566314697,0.47656757831573493,7.348809023198857
9.547425985336304,0.47737129926681515,7.403982086669146
9.547425985336304,0.47737129926681515,7.474412379943264
9.57869291305542,0.478934645652771,7.54984613505631
9.62557339668274,0.4812786698341369,7.605498529541979
9.641599893569946,0.4820799946784973,7.669193865122249
9.657240867614746,0.4828620433807373,7.741170074001172
9.689600706100464,0.4844800353050232,7.8115953604851285
9.720293283462524,0.4860146641731262,7.876725131908664
9.751999378204346,0.4875999689102173,7.941651651493508
9.78408145904541,0.48920407295227053,8.020292961422598
9.81550145149231,0.4907750725746155,8.091261484639034
9.840530633926392,0.49202653169631955,8.152215492934708
9.86315369606018,0.49315768480300903,8.21624139587491
9.89384126663208,0.494692063331604,8.29086383163909
9.948051452636719,0.4974025726318359,8.34889449914083
9.972766876220703,0.49863834381103517,8.39738778928043
9.988335371017456,0.4994167685508728,8.456776827560784
10.003966808319092,0.5001983404159546,8.524946474019494
10.030741691589355,0.5015370845794678,8.595581726213979
10.05128288269043,0.5025641441345214,8.674487499574731
10.082554340362549,0.5041277170181274,8.755967616619149
10.113799333572388,0.5056899666786194,8.831839751979413
10.161677837371826,0.5080838918685914,8.893834128358716
10.183913469314575,0.5091956734657288,8.960054474052594
10.193283557891846,0.5096641778945923,9.04744483031202
10.24345850944519,0.5121729254722596,9.125855537031178
10.255969524383545,0.5127984762191772,9.20329490738326
10.30302381515503,0.5151511907577515,9.267522927296689
10.318958282470703,0.5159479141235351,9.33592111703928
10.341105937957764,0.5170552968978881,9.401015998292603
10.371545553207397,0.5185772776603699,9.466526800757173
10.39841341972351,0.5199206709861756,9.535476204716737
10.446635961532593,0.5223317980766297,9.608003704115891
10.46183443069458,0.5230917215347289,9.68279974675729
10.47686505317688,0.5238432526588439,9.753515484298038
10.512481212615967,0.5256240606307983,9.832760656044048
10.555680274963379,0.527784013748169,9.897911842233672
10.55640983581543,0.5278204917907715,9.983725317086733
10.58710241317749,0.5293551206588745,10.065909851361017
10.618354797363281,0.5309177398681642,10.147292135730336
10.650909423828125,0.5325454711914063,10.223866800047652
10.667680978775024,0.5333840489387511,10.307989696445844
10.713311195373535,0.5356655597686767,10.392158717301186
10.730116367340088,0.5365058183670044,10.475524386754238
10.761656284332275,0.5380828142166139,10.551885447100492
10.784349918365479,0.5392174959182738,10.634707770149681
10.807773351669312,0.5403886675834656,10.72991798401694
10.841569185256958,0.5420784592628479,10.808595061516392
10.87192440032959,0.5435962200164794,10.882440667568027
10.90272831916809,0.5451364159584045,10.957760544441427
10.941608428955078,0.5470804214477539,11.03241775595004
10.951071977615356,0.5475535988807678,11.109478932453818
10.998709678649902,0.5499354839324951,11.18678640488772
11.014659881591797,0.5507329940795899,11.267021438130222
11.045440912246704,0.5522720456123352,11.345135838245092
11.062896013259888,0.5531448006629943,11.425869504869972
11.099063158035278,0.5549531579017639,11.498981277610934
11.124758958816528,0.5562379479408265,11.57864314305137
11.142271757125854,0.5571135878562927,11.669726369466005
11.172535419464111,0.5586267709732056,11.758579647834495
11.21133828163147,0.5605669140815734,11.848721588160931
11.25318694114685,0.5626593470573426,11.922670973059812
11.269453525543213,0.5634726762771607,12.013555954425929
11.28359580039978,0.5641797900199891,12.102844823538433
